# Wavelength (nm), Photons s-1 cm-2 nm-1
2.001100000000000136e+02 1.717494000000000000e+12
2.001200000000000045e+02 2.411859000000000000e+12
2.001299999999999955e+02 3.229934000000000000e+12
2.001399999999999864e+02 4.154769000000000000e+12
2.001500000000000057e+02 5.128377000000000000e+12
2.001599999999999966e+02 6.078914000000000000e+12
2.001699999999999875e+02 6.393402000000000000e+12
2.001800000000000068e+02 6.635533000000000000e+12
2.001899999999999977e+02 6.783765000000000000e+12
2.001999999999999886e+02 6.821517000000000000e+12
2.002100000000000080e+02 6.747980000000000000e+12
2.002199999999999989e+02 6.595409000000000000e+12
2.002299999999999898e+02 6.434111000000000000e+12
2.002400000000000091e+02 6.345743000000000000e+12
2.002500000000000000e+02 6.376388000000000000e+12
2.002599999999999909e+02 6.510231000000000000e+12
2.002700000000000102e+02 6.687119000000000000e+12
2.002800000000000011e+02 6.843471000000000000e+12
2.002899999999999920e+02 6.940647000000000000e+12
2.003000000000000114e+02 6.964350000000000000e+12
2.003100000000000023e+02 6.909890000000000000e+12
2.003199999999999932e+02 6.780711000000000000e+12
2.003300000000000125e+02 6.600312000000000000e+12
2.003400000000000034e+02 6.414573000000000000e+12
2.003499999999999943e+02 6.279824000000000000e+12
2.003600000000000136e+02 6.244311000000000000e+12
2.003700000000000045e+02 6.326379000000000000e+12
2.003799999999999955e+02 6.505354000000000000e+12
2.003899999999999864e+02 6.736759000000000000e+12
2.004000000000000057e+02 6.974119000000000000e+12
2.004099999999999966e+02 7.177748000000000000e+12
2.004199999999999875e+02 7.313673000000000000e+12
2.004300000000000068e+02 7.356922000000000000e+12
2.004399999999999977e+02 7.302029000000000000e+12
2.004499999999999886e+02 7.165411000000000000e+12
2.004600000000000080e+02 6.972741000000000000e+12
2.004699999999999989e+02 6.748538000000000000e+12
2.004799999999999898e+02 6.518429000000000000e+12
2.004900000000000091e+02 6.313553000000000000e+12
2.005000000000000000e+02 6.166078000000000000e+12
2.005099999999999909e+02 6.093823000000000000e+12
2.005200000000000102e+02 6.089218000000000000e+12
2.005300000000000011e+02 6.136524000000000000e+12
2.005399999999999920e+02 6.241551000000000000e+12
2.005500000000000114e+02 6.426002000000000000e+12
2.005600000000000023e+02 6.689781000000000000e+12
2.005699999999999932e+02 6.997166000000000000e+12
2.005800000000000125e+02 7.302237000000000000e+12
2.005900000000000034e+02 7.573220000000000000e+12
2.005999999999999943e+02 7.792502000000000000e+12
2.006100000000000136e+02 7.946239000000000000e+12
2.006200000000000045e+02 8.018836000000000000e+12
2.006299999999999955e+02 8.000867000000000000e+12
2.006399999999999864e+02 7.905160000000000000e+12
2.006500000000000057e+02 7.763186000000000000e+12
2.006599999999999966e+02 7.595950000000000000e+12
2.006699999999999875e+02 7.401106000000000000e+12
2.006800000000000068e+02 7.179150000000000000e+12
2.006899999999999977e+02 6.961442000000000000e+12
2.006999999999999886e+02 6.802554000000000000e+12
2.007100000000000080e+02 6.744840000000000000e+12
2.007199999999999989e+02 6.786719000000000000e+12
2.007299999999999898e+02 6.883138000000000000e+12
2.007400000000000091e+02 6.982436000000000000e+12
2.007500000000000000e+02 7.063514000000000000e+12
2.007599999999999909e+02 7.132665000000000000e+12
2.007700000000000102e+02 7.190133000000000000e+12
2.007800000000000011e+02 7.212402000000000000e+12
2.007899999999999920e+02 7.168114000000000000e+12
2.008000000000000114e+02 7.045717000000000000e+12
2.008100000000000023e+02 6.869896000000000000e+12
2.008199999999999932e+02 6.697338000000000000e+12
2.008300000000000125e+02 6.588389000000000000e+12
2.008400000000000034e+02 6.570137000000000000e+12
2.008499999999999943e+02 6.625232000000000000e+12
2.008600000000000136e+02 6.715112000000000000e+12
2.008700000000000045e+02 6.806908000000000000e+12
2.008799999999999955e+02 6.878764000000000000e+12
2.008899999999999864e+02 6.912402000000000000e+12
2.009000000000000057e+02 6.896482000000000000e+12
2.009099999999999966e+02 6.843055000000000000e+12
2.009199999999999875e+02 6.790448000000000000e+12
2.009300000000000068e+02 6.776530000000000000e+12
2.009399999999999977e+02 6.807978000000000000e+12
2.009499999999999886e+02 6.863800000000000000e+12
2.009600000000000080e+02 6.933998000000000000e+12
2.009699999999999989e+02 7.045865000000000000e+12
2.009799999999999898e+02 7.234859000000000000e+12
2.009900000000000091e+02 7.490451000000000000e+12
2.010000000000000000e+02 7.749655000000000000e+12
2.010099999999999909e+02 7.947441000000000000e+12
2.010200000000000102e+02 8.063126000000000000e+12
2.010300000000000011e+02 8.120656000000000000e+12
2.010399999999999920e+02 8.153187000000000000e+12
2.010500000000000114e+02 8.167968000000000000e+12
2.010600000000000023e+02 8.144116000000000000e+12
2.010699999999999932e+02 8.061307000000000000e+12
2.010800000000000125e+02 7.922552000000000000e+12
2.010900000000000034e+02 7.748076000000000000e+12
2.010999999999999943e+02 7.558779000000000000e+12
2.011100000000000136e+02 7.370698000000000000e+12
2.011200000000000045e+02 7.192953000000000000e+12
2.011299999999999955e+02 7.021741000000000000e+12
2.011399999999999864e+02 6.844802000000000000e+12
2.011500000000000057e+02 6.660999000000000000e+12
2.011599999999999966e+02 6.490590000000000000e+12
2.011699999999999875e+02 6.360479000000000000e+12
2.011800000000000068e+02 6.283884000000000000e+12
2.011899999999999977e+02 6.259683000000000000e+12
2.011999999999999886e+02 6.290621000000000000e+12
2.012100000000000080e+02 6.393333000000000000e+12
2.012199999999999989e+02 6.578921000000000000e+12
2.012299999999999898e+02 6.827065000000000000e+12
2.012400000000000091e+02 7.095889000000000000e+12
2.012500000000000000e+02 7.358046000000000000e+12
2.012599999999999909e+02 7.612218000000000000e+12
2.012700000000000102e+02 7.859200000000000000e+12
2.012800000000000011e+02 8.079367000000000000e+12
2.012899999999999920e+02 8.241227000000000000e+12
2.013000000000000114e+02 8.334532000000000000e+12
2.013100000000000023e+02 8.386700000000000000e+12
2.013199999999999932e+02 8.436060000000000000e+12
2.013300000000000125e+02 8.496880000000000000e+12
2.013400000000000034e+02 8.557540000000000000e+12
2.013499999999999943e+02 8.598460000000000000e+12
2.013600000000000136e+02 8.605870000000000000e+12
2.013700000000000045e+02 8.581300000000000000e+12
2.013799999999999955e+02 8.538560000000000000e+12
2.013899999999999864e+02 8.482575000000000000e+12
2.014000000000000057e+02 8.400063000000000000e+12
2.014099999999999966e+02 8.282092000000000000e+12
2.014199999999999875e+02 8.148454000000000000e+12
2.014300000000000068e+02 8.040174000000000000e+12
2.014399999999999977e+02 7.986304000000000000e+12
2.014499999999999886e+02 7.975554000000000000e+12
2.014600000000000080e+02 7.963448000000000000e+12
2.014699999999999989e+02 7.919005000000000000e+12
2.014799999999999898e+02 7.860845000000000000e+12
2.014900000000000091e+02 7.834105000000000000e+12
2.015000000000000000e+02 7.857672000000000000e+12
2.015099999999999909e+02 7.905502000000000000e+12
2.015200000000000102e+02 7.933972000000000000e+12
2.015300000000000011e+02 7.922062000000000000e+12
2.015399999999999920e+02 7.887819000000000000e+12
2.015500000000000114e+02 7.863529000000000000e+12
2.015600000000000023e+02 7.857441000000000000e+12
2.015699999999999932e+02 7.848806000000000000e+12
2.015800000000000125e+02 7.815679000000000000e+12
2.015900000000000034e+02 7.757208000000000000e+12
2.015999999999999943e+02 7.692632000000000000e+12
2.016100000000000136e+02 7.645062000000000000e+12
2.016200000000000045e+02 7.623450000000000000e+12
2.016299999999999955e+02 7.616372000000000000e+12
2.016399999999999864e+02 7.603131000000000000e+12
2.016500000000000057e+02 7.573126000000000000e+12
2.016599999999999966e+02 7.534009000000000000e+12
2.016699999999999875e+02 7.499805000000000000e+12
2.016800000000000068e+02 7.479140000000000000e+12
2.016899999999999977e+02 7.482866000000000000e+12
2.016999999999999886e+02 7.534413000000000000e+12
2.017100000000000080e+02 7.657319000000000000e+12
2.017199999999999989e+02 7.844130000000000000e+12
2.017299999999999898e+02 8.039111000000000000e+12
2.017400000000000091e+02 8.168006000000000000e+12
2.017500000000000000e+02 8.201031000000000000e+12
2.017599999999999909e+02 8.179455000000000000e+12
2.017700000000000102e+02 8.169237000000000000e+12
2.017800000000000011e+02 8.200841000000000000e+12
2.017899999999999920e+02 8.267661000000000000e+12
2.018000000000000114e+02 8.366931000000000000e+12
2.018100000000000023e+02 8.515971000000000000e+12
2.018199999999999932e+02 8.727731000000000000e+12
2.018300000000000125e+02 8.986891000000000000e+12
2.018400000000000034e+02 9.252368000000000000e+12
2.018499999999999943e+02 9.472310000000000000e+12
2.018600000000000136e+02 9.595740000000000000e+12
2.018700000000000045e+02 9.583820000000000000e+12
2.018799999999999955e+02 9.428220000000000000e+12
2.018899999999999864e+02 9.168462000000000000e+12
2.019000000000000057e+02 8.880498000000000000e+12
2.019099999999999966e+02 8.627967000000000000e+12
2.019199999999999875e+02 8.424417000000000000e+12
2.019300000000000068e+02 8.253087000000000000e+12
2.019399999999999977e+02 8.111997000000000000e+12
2.019499999999999886e+02 8.026177000000000000e+12
2.019600000000000080e+02 8.026107000000000000e+12
2.019699999999999989e+02 8.120365000000000000e+12
2.019799999999999898e+02 8.281689000000000000e+12
2.019900000000000091e+02 8.461490000000000000e+12
2.020000000000000000e+02 8.619060000000000000e+12
2.020099999999999909e+02 8.732270000000000000e+12
2.020200000000000102e+02 8.793160000000000000e+12
2.020300000000000011e+02 8.805430000000000000e+12
2.020399999999999920e+02 8.774421000000000000e+12
2.020500000000000114e+02 8.697261000000000000e+12
2.020600000000000023e+02 8.577111000000000000e+12
2.020699999999999932e+02 8.441451000000000000e+12
2.020800000000000125e+02 8.332921000000000000e+12
2.020900000000000034e+02 8.286021000000000000e+12
2.020999999999999943e+02 8.308001000000000000e+12
2.021100000000000136e+02 8.367921000000000000e+12
2.021200000000000045e+02 8.413210000000000000e+12
2.021299999999999955e+02 8.407813000000000000e+12
2.021399999999999864e+02 8.346078000000000000e+12
2.021500000000000057e+02 8.236215000000000000e+12
2.021599999999999966e+02 8.089547000000000000e+12
2.021699999999999875e+02 7.920840000000000000e+12
2.021800000000000068e+02 7.746571000000000000e+12
2.021899999999999977e+02 7.583501000000000000e+12
2.021999999999999886e+02 7.444460000000000000e+12
2.022100000000000080e+02 7.331743000000000000e+12
2.022199999999999989e+02 7.240505000000000000e+12
2.022299999999999898e+02 7.166698000000000000e+12
2.022400000000000091e+02 7.108424000000000000e+12
2.022500000000000000e+02 7.068198000000000000e+12
2.022599999999999909e+02 7.054025000000000000e+12
2.022700000000000102e+02 7.071579000000000000e+12
2.022800000000000011e+02 7.124173000000000000e+12
2.022899999999999920e+02 7.222674000000000000e+12
2.023000000000000114e+02 7.375607000000000000e+12
2.023100000000000023e+02 7.565047000000000000e+12
2.023199999999999932e+02 7.750739000000000000e+12
2.023300000000000125e+02 7.904172000000000000e+12
2.023400000000000034e+02 8.034084000000000000e+12
2.023499999999999943e+02 8.180610000000000000e+12
2.023600000000000136e+02 8.379297000000000000e+12
2.023700000000000045e+02 8.621900000000000000e+12
2.023799999999999955e+02 8.861230000000000000e+12
2.023899999999999864e+02 9.062010000000000000e+12
2.024000000000000057e+02 9.230790000000000000e+12
2.024099999999999966e+02 9.386170000000000000e+12
2.024199999999999875e+02 9.516570000000000000e+12
2.024300000000000068e+02 9.576650000000000000e+12
2.024399999999999977e+02 9.518180000000000000e+12
2.024499999999999886e+02 9.330540000000000000e+12
2.024600000000000080e+02 9.060634000000000000e+12
2.024699999999999989e+02 8.783294000000000000e+12
2.024799999999999898e+02 8.545727000000000000e+12
2.024900000000000091e+02 8.346968000000000000e+12
2.025000000000000000e+02 8.167955000000000000e+12
2.025099999999999909e+02 8.014902000000000000e+12
2.025200000000000102e+02 7.931162000000000000e+12
2.025300000000000011e+02 7.957552000000000000e+12
2.025399999999999920e+02 8.078398000000000000e+12
2.025500000000000114e+02 8.217818000000000000e+12
2.025600000000000023e+02 8.287765000000000000e+12
2.025699999999999932e+02 8.230365000000000000e+12
2.025800000000000125e+02 8.024115000000000000e+12
2.025900000000000034e+02 7.670097000000000000e+12
2.025999999999999943e+02 7.180054000000000000e+12
2.026100000000000136e+02 6.576466000000000000e+12
2.026200000000000045e+02 5.905149000000000000e+12
2.026299999999999955e+02 5.247385000000000000e+12
2.026399999999999864e+02 4.709643000000000000e+12
2.026500000000000057e+02 4.385042000000000000e+12
2.026599999999999966e+02 4.312257000000000000e+12
2.026699999999999875e+02 4.462379000000000000e+12
2.026800000000000068e+02 4.760189000000000000e+12
2.026899999999999977e+02 5.125849000000000000e+12
2.026999999999999886e+02 5.510779000000000000e+12
2.027100000000000080e+02 5.899811000000000000e+12
2.027199999999999989e+02 6.279942000000000000e+12
2.027299999999999898e+02 6.616311000000000000e+12
2.027400000000000091e+02 6.871928000000000000e+12
2.027500000000000000e+02 7.051452000000000000e+12
2.027599999999999909e+02 7.212982000000000000e+12
2.027700000000000102e+02 7.426200000000000000e+12
2.027800000000000011e+02 7.715027000000000000e+12
2.027899999999999920e+02 8.038779000000000000e+12
2.028000000000000114e+02 8.331110000000000000e+12
2.028100000000000023e+02 8.559951000000000000e+12
2.028199999999999932e+02 8.744722000000000000e+12
2.028300000000000125e+02 8.916347000000000000e+12
2.028400000000000034e+02 9.075000000000000000e+12
2.028499999999999943e+02 9.190160000000000000e+12
2.028600000000000136e+02 9.229560000000000000e+12
2.028700000000000045e+02 9.185150000000000000e+12
2.028799999999999955e+02 9.080180000000000000e+12
2.028899999999999864e+02 8.955370000000000000e+12
2.029000000000000057e+02 8.845010000000000000e+12
2.029099999999999966e+02 8.760550000000000000e+12
2.029199999999999875e+02 8.693050000000000000e+12
2.029300000000000068e+02 8.632750000000000000e+12
2.029399999999999977e+02 8.580650000000000000e+12
2.029499999999999886e+02 8.533090000000000000e+12
2.029600000000000080e+02 8.468040000000000000e+12
2.029699999999999989e+02 8.367713000000000000e+12
2.029799999999999898e+02 8.251025000000000000e+12
2.029900000000000091e+02 8.167157000000000000e+12
2.030000000000000000e+02 8.157117000000000000e+12
2.030099999999999909e+02 8.227747000000000000e+12
2.030200000000000102e+02 8.357597000000000000e+12
2.030300000000000011e+02 8.519547000000000000e+12
2.030399999999999920e+02 8.694557000000000000e+12
2.030500000000000114e+02 8.863174000000000000e+12
2.030600000000000023e+02 8.993902000000000000e+12
2.030699999999999932e+02 9.056820000000000000e+12
2.030800000000000125e+02 9.049000000000000000e+12
2.030900000000000034e+02 8.998410000000000000e+12
2.030999999999999943e+02 8.950290000000000000e+12
2.031100000000000136e+02 8.956080000000000000e+12
2.031200000000000045e+02 9.059430000000000000e+12
2.031299999999999955e+02 9.273320000000000000e+12
2.031399999999999864e+02 9.566410000000000000e+12
2.031500000000000057e+02 9.874570000000000000e+12
2.031599999999999966e+02 1.013404000000000000e+13
2.031699999999999875e+02 1.031453000000000000e+13
2.031800000000000068e+02 1.042235000000000000e+13
2.031899999999999977e+02 1.047136000000000000e+13
2.031999999999999886e+02 1.046266000000000000e+13
2.032100000000000080e+02 1.040012000000000000e+13
2.032199999999999989e+02 1.030956000000000000e+13
2.032299999999999898e+02 1.022683000000000000e+13
2.032400000000000091e+02 1.017276000000000000e+13
2.032500000000000000e+02 1.014382000000000000e+13
2.032599999999999909e+02 1.011793000000000000e+13
2.032700000000000102e+02 1.006814000000000000e+13
2.032800000000000011e+02 9.979720000000000000e+12
2.032899999999999920e+02 9.856740000000000000e+12
2.033000000000000114e+02 9.713800000000000000e+12
2.033100000000000023e+02 9.565150000000000000e+12
2.033199999999999932e+02 9.416280000000000000e+12
2.033300000000000125e+02 9.260120000000000000e+12
2.033400000000000034e+02 9.087460000000000000e+12
2.033499999999999943e+02 8.901120000000000000e+12
2.033600000000000136e+02 8.706428000000000000e+12
2.033700000000000045e+02 8.489347000000000000e+12
2.033799999999999955e+02 8.224440000000000000e+12
2.033899999999999864e+02 7.911098000000000000e+12
2.034000000000000057e+02 7.591328000000000000e+12
2.034099999999999966e+02 7.330734000000000000e+12
2.034199999999999875e+02 7.187600000000000000e+12
2.034300000000000068e+02 7.191210000000000000e+12
2.034399999999999977e+02 7.330532000000000000e+12
2.034499999999999886e+02 7.555153000000000000e+12
2.034600000000000080e+02 7.792230000000000000e+12
2.034699999999999989e+02 7.973851000000000000e+12
2.034799999999999898e+02 8.062351000000000000e+12
2.034900000000000091e+02 8.060383000000000000e+12
2.035000000000000000e+02 7.998843000000000000e+12
2.035099999999999909e+02 7.911550000000000000e+12
2.035200000000000102e+02 7.819080000000000000e+12
2.035300000000000011e+02 7.737610000000000000e+12
2.035399999999999920e+02 7.700380000000000000e+12
2.035500000000000114e+02 7.758731000000000000e+12
2.035600000000000023e+02 7.949571000000000000e+12
2.035699999999999932e+02 8.259293000000000000e+12
2.035800000000000125e+02 8.624647000000000000e+12
2.035900000000000034e+02 8.974130000000000000e+12
2.035999999999999943e+02 9.270480000000000000e+12
2.036100000000000136e+02 9.514230000000000000e+12
2.036200000000000045e+02 9.716600000000000000e+12
2.036299999999999955e+02 9.884230000000000000e+12
2.036399999999999864e+02 1.002773000000000000e+13
2.036500000000000057e+02 1.016176000000000000e+13
2.036599999999999966e+02 1.028299000000000000e+13
2.036699999999999875e+02 1.035809000000000000e+13
2.036800000000000068e+02 1.035018000000000000e+13
2.036899999999999977e+02 1.026342000000000000e+13
2.036999999999999886e+02 1.015286000000000000e+13
2.037100000000000080e+02 1.007539000000000000e+13
2.037199999999999989e+02 1.003077000000000000e+13
2.037299999999999898e+02 9.967640000000000000e+12
2.037400000000000091e+02 9.853040000000000000e+12
2.037500000000000000e+02 9.722360000000000000e+12
2.037599999999999909e+02 9.655100000000000000e+12
2.037700000000000102e+02 9.707580000000000000e+12
2.037800000000000011e+02 9.866450000000000000e+12
2.037899999999999920e+02 1.006182000000000000e+13
2.038000000000000114e+02 1.022553000000000000e+13
2.038100000000000023e+02 1.033551000000000000e+13
2.038199999999999932e+02 1.040730000000000000e+13
2.038300000000000125e+02 1.045844000000000000e+13
2.038400000000000034e+02 1.048812000000000000e+13
2.038499999999999943e+02 1.048020000000000000e+13
2.038600000000000136e+02 1.041958000000000000e+13
2.038700000000000045e+02 1.030804000000000000e+13
2.038799999999999955e+02 1.016181000000000000e+13
2.038899999999999864e+02 9.992940000000000000e+12
2.039000000000000057e+02 9.800820000000000000e+12
2.039099999999999966e+02 9.587150000000000000e+12
2.039199999999999875e+02 9.373110000000000000e+12
2.039300000000000068e+02 9.189520000000000000e+12
2.039399999999999977e+02 9.046430000000000000e+12
2.039499999999999886e+02 8.921950000000000000e+12
2.039600000000000080e+02 8.787870000000000000e+12
2.039699999999999989e+02 8.641850000000000000e+12
2.039799999999999898e+02 8.509900000000000000e+12
2.039900000000000091e+02 8.417310000000000000e+12
2.040000000000000000e+02 8.359380000000000000e+12
2.040099999999999909e+02 8.305170000000000000e+12
2.040200000000000102e+02 8.230400000000000000e+12
2.040300000000000011e+02 8.143807000000000000e+12
2.040399999999999920e+02 8.084326000000000000e+12
2.040500000000000114e+02 8.095206000000000000e+12
2.040600000000000023e+02 8.196926000000000000e+12
2.040699999999999932e+02 8.380186000000000000e+12
2.040800000000000125e+02 8.619906000000000000e+12
2.040900000000000034e+02 8.891906000000000000e+12
